#Creator: pendulumviewEventBuffer
#Creation time: Mon Mar  7 10:03:51 2022
#Time A	Pos A	Time B	Pos B
#[s]	[au]	[s]	[au]
0.025	162	0.050	671
0.076	209	0.101	627
0.126	266	0.152	576
0.177	333	0.203	519
0.227	402	0.253	461
0.279	470	0.304	403
0.329	534	0.354	349
0.380	591	0.406	304
0.430	639	0.456	266
0.481	675	0.507	241
0.531	694	0.557	228
0.583	697	0.608	229
0.633	683	0.658	243
0.684	656	0.710	269
0.734	617	0.760	305
0.785	565	0.811	349
0.836	505	0.861	401
0.887	441	0.912	458
0.937	372	0.963	515
0.988	305	1.014	571
1.038	244	1.064	620
1.090	193	1.115	663
1.140	151	1.165	695
1.191	123	1.217	714
1.241	109	1.267	719
1.292	114	1.318	711
1.343	130	1.368	695
1.394	160	1.419	666
1.444	206	1.469	626
1.495	262	1.521	577
1.545	326	1.571	523
1.596	392	1.622	467
1.647	459	1.672	411
1.698	523	1.723	359
1.749	580	1.774	313
1.799	629	1.825	277
1.850	666	1.875	250
1.901	687	1.926	235
1.952	691	1.976	236
2.002	678	2.028	247
2.053	654	2.078	271
2.103	618	2.129	306
2.155	568	2.179	348
2.205	511	2.230	398
2.256	446	2.280	453
2.306	379	2.332	509
2.357	314	2.382	563
2.407	255	2.433	613
2.459	203	2.483	655
2.509	161	2.534	687
2.560	131	2.585	706
2.610	117	2.636	713
2.661	118	2.686	708
2.712	134	2.737	692
2.763	160	2.787	663
2.813	204	2.839	621
2.864	257	2.889	574
2.914	318	2.940	522
2.966	382	2.990	466
3.016	446	3.041	411
3.067	511	3.091	360
3.117	569	3.143	317
3.168	617	3.193	281
3.218	655	3.244	255
3.270	677	3.294	241
3.320	683	3.345	241
3.371	674	3.396	253
3.421	651	3.447	276
3.472	618	3.497	310
3.523	572	3.548	352
3.574	516	3.598	401
3.624	456	3.650	455
3.675	388	3.700	510
3.725	325	3.751	562
3.777	265	3.801	611
3.827	214	3.852	652
3.878	171	3.903	683
3.928	140	3.954	703
3.979	123	4.004	709
4.029	125	4.055	703
4.081	136	4.105	688
4.131	162	4.156	658
4.182	203	4.207	618
4.232	254	4.258	571
4.283	313	4.308	520
4.334	375	4.359	466
4.385	438	4.409	412
4.435	501	4.461	362
4.486	557	4.511	319
4.536	606	4.562	284
4.588	643	4.612	258
4.638	667	4.663	245
4.689	675	4.714	246
4.739	667	4.765	259
4.790	648	4.816	282
4.840	617	4.866	314
4.892	573	4.917	355
4.942	520	4.967	404
4.993	461	5.019	457
5.043	397	5.069	510
5.094	335	5.120	563
5.145	276	5.170	610
5.196	224	5.221	651
5.246	181	5.272	681
5.297	150	5.323	700
5.347	133	5.373	706
5.399	131	5.424	702
5.449	142	5.474	684
5.500	164	5.526	656
5.550	203	5.576	618
5.601	251	5.627	571
5.651	307	5.677	521
5.703	367	5.728	467
5.753	429	5.778	414
5.804	491	5.830	365
5.854	546	5.880	322
5.905	595	5.931	288
5.956	632	5.981	262
6.007	658	6.032	249
6.057	667	6.083	250
6.108	661	6.134	261
6.158	643	6.184	284
6.210	615	6.235	316
6.260	573	6.285	356
6.311	522	6.337	405
6.361	466	6.387	457
6.412	403	6.438	511
6.463	344	6.488	562
6.514	286	6.539	609
6.564	235	6.589	650
6.615	192	6.641	680
6.665	160	6.691	698
6.716	141	6.742	704
6.767	140	6.792	699
6.818	148	6.843	682
6.868	169	6.894	654
6.919	205	6.945	616
6.969	250	6.995	570
7.021	302	7.046	520
7.071	361	7.096	466
7.122	422	7.148	414
7.172	481	7.198	366
7.223	535	7.249	324
7.274	583	7.299	289
7.325	621	7.350	265
7.375	647	7.400	252
7.426	657	7.452	253
7.476	654	7.502	265
7.527	639	7.553	287
7.578	613	7.603	319
7.629	573	7.654	359
7.680	523	7.705	407
7.730	469	7.756	459
7.781	410	7.806	510
7.832	351	7.857	562
7.883	295	7.907	608
7.933	244	7.959	648
7.984	202	8.009	678
8.034	170	8.060	696
8.086	152	8.110	702
8.136	146	8.161	697
8.187	155	8.211	681
8.237	175	8.263	654
8.288	207	8.313	615
8.338	250	8.364	571
8.390	300	8.414	520
8.440	357	8.465	468
8.491	415	8.516	416
8.541	473	8.567	368
8.592	526	8.617	327
8.643	573	8.668	292
8.694	611	8.718	267
8.744	637	8.770	255
8.795	648	8.820	255
8.845	646	8.871	266
8.897	632	8.921	289
8.947	608	8.972	320
8.998	570	9.023	360
9.048	524	9.074	406
9.099	472	9.124	458
9.149	414	9.175	510
9.201	359	9.225	561
9.251	304	9.276	607
9.302	255	9.327	647
9.352	211	9.378	677
9.403	181	9.428	695
9.454	160	9.479	701
9.505	157	9.529	696
9.555	162	9.581	681
9.606	179	9.631	653
9.656	211	9.682	615
9.708	251	9.732	571
9.758	300	9.783	521
9.809	353	9.834	470
9.859	410	9.885	418
9.910	466	9.935	369
9.960	517	9.986	329
10.012	562	10.036	294
10.062	601	10.087	269
10.113	627	10.138	257
10.163	639	10.189	258
10.214	638	10.239	269
10.265	627	10.290	290
10.316	603	10.340	321
10.366	568	10.392	360
10.417	523	10.442	407
10.467	473	10.493	457
10.519	418	10.543	509
10.569	364	10.594	559
10.620	310	10.645	607
10.670	261	10.696	646
10.721	222	10.747	674
10.771	189	10.797	694
10.823	171	10.848	699
10.873	164	10.898	695
10.924	169	10.950	680
10.974	185	11.000	654
11.025	216	11.051	616
11.076	253	11.101	573
11.127	299	11.152	523
11.177	352	11.203	470
11.228	406	11.254	419
11.278	459	11.304	372
11.330	510	11.355	331
11.380	553	11.405	296
11.431	591	11.457	272
11.481	617	11.507	258
11.532	629	11.558	258
11.583	629	11.608	269
11.634	619	11.659	290
11.684	597	11.709	320
11.735	564	11.761	360
11.785	521	11.811	405
11.836	474	11.862	455
11.887	421	11.912	506
11.938	369	11.963	557
11.988	317	12.014	604
12.039	270	12.065	642
12.089	229	12.115	674
12.141	200	12.166	692
12.191	181	12.216	699
12.242	173	12.268	695
12.292	176	12.318	681
12.343	191	12.369	654
12.394	220	12.419	617
12.445	257	12.470	574
12.495	300	12.520	525
12.546	350	12.572	473
12.596	402	12.622	422
12.647	455	12.673	375
12.698	503	12.723	333
12.749	546	12.774	299
12.799	582	12.825	274
12.850	608	12.876	260
12.900	621	12.926	260
12.952	621	12.977	268
13.002	612	13.027	290
13.053	591	13.079	321
13.103	560	13.129	357
13.154	521	13.180	403
13.205	475	13.230	453
13.256	423	13.281	504
13.306	372	13.331	555
13.357	323	13.383	602
13.407	278	13.433	640
13.458	239	13.484	671
13.509	208	13.534	690
13.560	189	13.585	696
13.610	182	13.636	694
13.661	185	13.687	681
13.711	198	13.737	654
13.763	226	13.788	618
13.813	261	13.838	576
13.864	302	13.890	526
13.914	349	13.940	475
13.965	399	13.991	425
14.016	450	14.041	377
14.067	497	14.092	336
14.117	539	14.143	302
14.168	574	14.194	275
14.218	600	14.244	262
14.269	611	14.295	261
14.320	613	14.345	269
14.371	604	14.396	289
14.422	585	14.447	318
14.472	556	14.498	356
14.523	516	14.548	401
14.574	472	14.599	449
14.625	424	14.649	500
14.675	375	14.701	552
14.726	327	14.751	597
14.776	283	14.802	637
14.828	245	14.852	667
14.878	216	14.903	688
14.929	198	14.954	697
14.979	190	15.005	694
15.030	192	15.055	681
15.080	206	15.106	655
15.132	232	15.156	621
15.182	264	15.207	577
15.233	304	15.258	530
15.283	350	15.309	478
15.334	398	15.359	429
15.385	447	15.410	381
15.436	494	15.460	339
15.486	533	15.512	304
15.537	567	15.562	279
15.587	591	15.613	263
15.639	603	15.663	262
15.689	605	15.714	270
15.740	597	15.765	289
15.790	578	15.816	317
15.841	551	15.866	354
15.891	513	15.917	399
15.943	470	15.967	446
15.993	424	16.018	497
16.044	377	16.069	547
16.094	331	16.120	593
16.145	288	16.170	633
16.196	251	16.221	664
16.247	224	16.271	685
16.297	205	16.323	695
16.348	197	16.373	692
16.398	199	16.424	680
16.450	213	16.474	655
16.500	238	16.525	622
16.551	269	16.576	581
16.601	308	16.627	533
16.652	352	16.677	483
16.703	399	16.728	433
16.754	446	16.778	386
16.804	489	16.829	343
16.855	528	16.880	308
16.905	560	16.931	281
16.956	584	16.981	266
17.007	595	17.032	263
17.058	598	17.082	270
17.108	591	17.134	287
17.159	572	17.184	316
17.209	544	17.235	352
17.261	510	17.285	395
17.311	468	17.336	442
17.362	424	17.387	493
17.412	377	17.438	543
17.463	333	17.489	589
17.514	292	17.539	628
17.565	258	17.590	661
17.615	230	17.640	683
17.666	212	17.692	692
17.716	204	17.742	690
17.767	206	17.793	680
17.818	220	17.843	657
17.869	243	17.894	623
17.919	274	17.945	582
17.970	310	17.996	536
18.020	354	18.046	486
18.072	399	18.097	437
18.122	445	18.147	391
18.173	487	18.199	348
18.223	524	18.249	312
18.274	555	18.300	285
18.325	578	18.350	268
18.376	589	18.401	266
18.426	592	18.451	271
18.477	584	18.503	288
18.527	565	18.553	315
18.578	539	18.604	350
18.629	504	18.654	392
18.680	466	18.705	439
18.730	422	18.756	487
18.781	377	18.807	537
18.831	335	18.857	584
18.883	294	18.908	624
18.933	262	18.958	656
18.984	236	19.010	678
19.034	219	19.060	690
19.085	211	19.111	690
19.136	213	19.161	679
19.187	226	19.212	657
19.237	249	19.263	625
19.288	278	19.314	586
19.338	315	19.364	540
19.389	356	19.415	491
19.440	400	19.465	442
19.491	444	19.516	395
19.541	485	19.567	353
19.592	520	19.618	317
19.642	551	19.668	289
19.694	573	19.719	272
19.744	584	19.769	267
19.795	585	19.821	273
19.845	578	19.871	289
19.896	560	19.922	314
19.947	534	19.972	348
19.998	501	20.023	389
20.048	463	20.074	435
20.099	419	20.125	484
20.149	377	20.175	532
20.200	335	20.226	578
20.251	297	20.276	619
20.302	264	20.327	650
20.352	240	20.378	674
20.403	223	20.429	686
20.453	216	20.479	686
20.505	220	20.530	677
20.555	233	20.580	657
20.606	253	20.632	627
20.656	283	20.682	589
20.707	319	20.733	544
20.758	359	20.783	496
20.809	401	20.834	448
20.859	444	20.885	401
20.910	484	20.936	359
20.960	518	20.986	322
21.011	547	21.037	295
21.062	568	21.087	277
21.113	578	21.138	271
21.163	581	21.189	276
21.214	573	21.240	289
21.264	555	21.290	314
21.316	530	21.341	345
21.366	497	21.391	386
21.417	460	21.443	430
21.467	418	21.493	479
21.518	377	21.544	526
21.569	336	21.594	573
21.620	298	21.645	613
21.670	268	21.696	645
21.721	244	21.747	669
21.771	229	21.797	681
21.823	222	21.848	684
21.873	224	21.898	676
21.924	237	21.949	656
21.974	259	22.000	627
22.025	287	22.051	590
22.075	323	22.101	548
22.127	362	22.152	500
22.177	403	22.202	452
22.228	445	22.254	406
22.278	483	22.304	365
22.329	517	22.355	329
22.380	544	22.405	301
22.431	564	22.456	281
22.481	574	22.507	274
22.532	576	22.558	277
22.582	568	22.608	291
22.634	550	22.659	315
22.684	525	22.709	345
22.735	494	22.760	384
22.785	457	22.811	426
22.836	416	22.862	473
22.886	375	22.912	522
22.938	336	22.963	566
22.988	300	23.013	607
23.039	270	23.065	640
23.089	246	23.115	664
23.140	231	23.166	676
23.191	226	23.216	679
23.242	229	23.267	674
23.292	242	23.318	656
23.343	263	23.369	628
23.393	291	23.419	592
23.445	326	23.470	551
23.495	365	23.520	504
23.546	405	23.571	458
23.596	446	23.622	413
23.647	483	23.673	371
23.697	516	23.723	334
23.749	543	23.774	306
23.799	561	23.824	287
23.850	571	23.876	280
23.900	573	23.926	281
23.951	564	23.977	292
24.002	546	24.027	314
24.053	521	24.078	345
24.103	490	24.129	382
24.154	454	24.180	423
24.204	415	24.230	470
24.256	375	24.281	515
24.306	336	24.331	560
24.357	300	24.383	600
24.407	271	24.433	633
24.458	249	24.484	657
24.508	236	24.534	672
24.560	229	24.585	675
24.610	232	24.635	670
24.661	246	24.687	654
24.711	267	24.737	627
24.762	295	24.788	594
24.813	329	24.838	553
24.864	367	24.889	508
24.914	407	24.940	462
24.965	446	24.991	418
25.015	482	25.041	377
25.067	514	25.092	341
25.117	541	25.142	313
25.168	559	25.194	292
25.218	568	25.244	283
25.269	569	25.295	285
25.319	560	25.345	295
25.371	543	25.396	316
25.421	518	25.446	344
25.472	486	25.498	379
25.522	451	25.548	421
25.573	412	25.599	465
25.624	374	25.649	510
25.675	336	25.700	555
25.725	302	25.751	593
25.776	272	25.802	626
25.826	251	25.852	651
25.878	238	25.903	666
25.928	232	25.953	670
25.979	235	26.005	666
26.029	249	26.055	651
26.080	270	26.106	626
26.130	299	26.156	594
26.182	331	26.207	555
26.232	369	26.257	512
26.283	407	26.309	467
26.333	447	26.359	423
26.384	483	26.410	383
26.436	515	26.460	347
26.486	540	26.511	318
26.537	557	26.562	299
26.587	566	26.613	290
26.638	566	26.663	290
26.689	558	26.714	299
26.740	541	26.764	318
26.790	517	26.816	345
26.841	484	26.866	380
26.891	449	26.917	418
26.943	410	26.967	461
26.993	372	27.018	505
27.044	335	27.068	549
27.094	301	27.120	587
27.145	274	27.170	620
27.195	252	27.221	645
27.247	240	27.271	660
27.297	234	27.322	664
27.348	239	27.373	662
27.398	252	27.424	648
27.449	273	27.474	625
27.500	301	27.525	595
27.551	334	27.575	556
27.601	371	27.627	515
27.652	410	27.677	471
27.702	447	27.728	429
27.754	483	27.778	389
27.804	514	27.829	354
27.855	539	27.879	325
27.905	556	27.931	305
27.956	563	27.981	295
28.006	564	28.032	295
28.058	555	28.082	303
28.108	539	28.133	320
28.159	513	28.184	346
28.209	483	28.235	379
28.260	447	28.285	417
28.311	411	28.336	458
28.362	371	28.386	501
28.412	335	28.438	543
28.463	301	28.488	582
28.513	274	28.539	614
28.565	254	28.589	638
28.615	241	28.640	654
28.666	236	28.690	659
28.716	240	28.742	658
28.767	254	28.792	644
28.817	275	28.843	623
28.869	302	28.893	593
28.919	335	28.944	557
28.970	372	28.995	516
29.020	410	29.046	474
29.071	448	29.096	432
29.122	483	29.147	394
29.173	513	29.197	360
29.223	538	29.249	332
29.274	554	29.299	311
29.324	563	29.350	301
29.376	563	29.400	301
29.426	554	29.451	307
29.477	537	29.501	323
29.527	512	29.553	348
29.578	481	29.604	380
29.628	447	29.654	416
29.680	409	29.705	455
29.730	371	29.755	497
29.781	335	29.807	539
29.831	302	29.857	575
29.882	275	29.908	607
29.933	255	29.958	632
29.984	242	30.009	648
30.034	237	30.060	653
30.085	242	30.111	652
30.135	256	30.161	641
30.187	277	30.212	620
30.237	304	30.262	592
30.288	336	30.314	557
30.338	372	30.364	518
30.389	410	30.415	477
30.439	448	30.465	436
30.491	482	30.516	399
30.541	512	30.566	365
30.592	538	30.618	337
30.642	553	30.668	317
30.693	561	30.719	307
30.744	562	30.769	305
30.795	553	30.820	311
30.845	536	30.871	327
30.896	512	30.922	350
30.946	481	30.972	381
30.998	447	31.023	417
31.048	410	31.073	454
31.099	371	31.125	495
31.149	336	31.175	534
31.200	303	31.226	570
31.250	276	31.276	601
31.302	255	31.327	625
31.352	243	31.377	640
31.403	239	31.429	648
31.453	242	31.479	648
31.504	256	31.530	636
31.555	277	31.580	616
31.606	305	31.631	590
31.656	337	31.682	557
31.707	374	31.733	521
31.757	410	31.783	480
31.809	448	31.834	441
31.859	482	31.884	404
31.910	513	31.936	370
31.960	536	31.986	344
32.011	552	32.037	324
32.061	560	32.087	313
32.113	560	32.138	310
32.163	552	32.188	316
32.214	534	32.240	330
32.264	510	32.290	352
32.315	480	32.341	381
32.366	447	32.391	414
32.417	409	32.442	453
32.467	372	32.493	491
32.518	336	32.544	530
32.568	304	32.594	566
32.620	277	32.645	597
32.670	257	32.695	619
32.721	245	32.747	635
32.771	239	32.797	641
32.822	244	32.848	642
32.872	256	32.898	632
32.924	277	32.949	613
32.974	304	32.999	586
33.025	336	33.051	555
33.075	372	33.101	519
33.126	410	33.152	481
33.177	446	33.202	444
33.228	481	33.253	407
33.279	512	33.304	377
33.329	535	33.355	349
33.380	552	33.405	330
33.431	560	33.456	319
33.482	560	33.506	316
33.532	551	33.558	322
33.583	535	33.608	336
33.633	511	33.659	356
33.685	481	33.709	384
33.735	446	33.760	416
33.786	410	33.810	451
33.836	373	33.862	489
33.887	337	33.912	525
33.937	306	33.963	560
33.989	278	34.013	590
34.039	257	34.064	614
34.090	246	34.115	628
34.140	242	34.166	635
34.191	245	34.216	637
34.242	257	34.267	626
34.293	277	34.317	609
34.343	304	34.369	585
34.394	337	34.419	555
34.444	372	34.470	520
34.496	409	34.520	483
34.546	446	34.571	446
34.597	480	34.621	412
34.647	510	34.673	380
34.698	533	34.723	356
34.748	550	34.774	336
34.800	559	34.824	325
34.850	560	34.875	321
34.901	551	34.926	326
34.951	535	34.977	339
35.002	512	35.027	359
35.053	481	35.078	386
35.104	448	35.128	418
35.154	411	35.180	451
