#Creator: pendulumEventBuffer
#Creation time: Mon Mar 21 09:33:57 2022
#Time	Period	Transit time
#[s]	[s]	[s]
2.347165	2.135310	0.022238
3.414820	2.135270	0.022296
4.482435	2.135225	0.022338
5.550045	2.135199	0.022390
6.617634	2.135154	0.022448
7.685199	2.135111	0.022502
8.752745	2.135065	0.022558
9.820264	2.135043	0.022612
10.887788	2.134992	0.022664
11.955256	2.134929	0.022724
13.022717	2.134914	0.022786
14.090170	2.134869	0.022840
15.157586	2.134816	0.022896
16.224986	2.134800	0.022952
17.292386	2.134769	0.023004
18.359755	2.134731	0.023058
19.427117	2.134694	0.023118
20.494449	2.134657	0.023178
21.561774	2.134621	0.023236
22.629070	2.134590	0.023292
23.696364	2.134549	0.023344
24.763619	2.134504	0.023406
25.830868	2.134483	0.023464
26.898102	2.134458	0.023512
27.965326	2.134416	0.023568
29.032518	2.134385	0.023624
30.099711	2.134359	0.023682
31.166877	2.134322	0.023742
32.234033	2.134288	0.023794
33.301165	2.134242	0.023854
34.368275	2.134223	0.023906
35.435388	2.134219	0.023960
36.502494	2.134147	0.024024
37.569535	2.134082	0.024086
38.636576	2.134068	0.024144
39.703603	2.134014	0.024210
40.770590	2.133961	0.024264
41.837564	2.133931	0.024304
42.904521	2.133913	0.024366
43.971477	2.133892	0.024434
45.038413	2.133851	0.024494
46.105328	2.133806	0.024548
47.172219	2.133768	0.024602
48.239096	2.133765	0.024660
49.305984	2.133734	0.024720
50.372830	2.133696	0.024776
51.439680	2.133677	0.024832
52.506507	2.133656	0.024890
53.573336	2.133627	0.024948
54.640134	2.133586	0.025012
55.706922	2.133549	0.025072
56.773683	2.133514	0.025130
57.840436	2.133479	0.025188
58.907162	2.133453	0.025240
59.973889	2.133430	0.025302
61.040592	2.133403	0.025368
62.107292	2.133375	0.025428
63.173967	2.133336	0.025486
64.240628	2.133313	0.025544
65.307280	2.133297	0.025600
66.373925	2.133269	0.025662
67.440549	2.133242	0.025718
68.507167	2.133206	0.025774
69.573755	2.133171	0.025842
70.640338	2.133157	0.025904
71.706912	2.133123	0.025960
72.773461	2.133075	0.026022
73.839987	2.133001	0.026086
74.906462	2.132986	0.026160
75.972973	2.132973	0.026222
77.039435	2.132937	0.026294
78.105910	2.133014	0.026392
79.172449	2.132972	0.026414
80.238882	2.132840	0.026436
81.305289	2.132824	0.026494
82.371706	2.132818	0.026560
83.438107	2.132772	0.026638
84.504478	2.132742	0.026688
85.570849	2.132688	0.026746
86.637166	2.132681	0.026828
87.703530	2.132701	0.026896
88.769867	2.132682	0.026950
89.836212	2.132628	0.027016
90.902495	2.132463	0.027070
91.968675	2.132445	0.027114
93.034940	2.132572	0.027192
94.101247	2.132557	0.027270
95.167497	2.132487	0.027322
96.233734	2.132453	0.027388
97.299950	2.132457	0.027448
98.366191	2.132441	0.027502
99.432391	2.132391	0.027558
100.498582	2.132376	0.027624
101.564767	2.132362	0.027702
102.630944	2.132332	0.027768
103.697099	2.132311	0.027814
104.763255	2.132289	0.027878
105.829388	2.132262	0.027948
106.895517	2.132235	0.028002
107.961623	2.132196	0.028062
109.027713	2.132181	0.028138
110.093804	2.132173	0.028200
111.159886	2.132133	0.028256
112.225937	2.132101	0.028326
113.291987	2.132081	0.028390
114.358018	2.132036	0.028452
115.424023	2.132010	0.028518
116.490028	2.131968	0.028600
117.555991	2.131929	0.028662
118.621957	2.131907	0.028722
119.687898	2.131881	0.028796
120.753838	2.131795	0.028864
121.819693	2.131776	0.028934
122.885614	2.131675	0.029012
123.951368	2.131543	0.029096
125.017157	2.131809	0.029178
126.083177	2.131868	0.029250
127.149025	2.131583	0.029322
128.214760	2.131537	0.029408
129.280562	2.131635	0.029488
130.346395	2.131565	0.029562
131.412127	2.131515	0.029634
132.477910	2.131513	0.029720
133.543640	2.131474	0.029800
134.609384	2.131517	0.029864
135.675157	2.131430	0.029934
136.740814	2.131455	0.030012
137.806612	2.131537	0.030092
138.872351	2.131391	0.030174
139.938003	2.131408	0.030270
141.003759	2.131441	0.030358
142.069444	2.131364	0.030432
143.135123	2.131373	0.030502
144.200817	2.131327	0.030578
145.266450	2.131262	0.030660
146.332079	2.131289	0.030726
147.397739	2.131277	0.030806
148.463356	2.131225	0.030892
149.528964	2.131191	0.030964
150.594547	2.131176	0.031054
151.660140	2.131155	0.031132
152.725702	2.131145	0.031216
153.791285	2.131117	0.031318
154.856819	2.131121	0.031374
155.922406	2.131096	0.031428
156.987915	2.131023	0.031510
158.053429	2.131030	0.031586
159.118945	2.131022	0.031670
160.184451	2.130984	0.031738
161.249929	2.130979	0.031794
162.315430	2.130974	0.031868
163.380903	2.130955	0.031942
164.446385	2.130944	0.032018
165.511847	2.130923	0.032090
166.577308	2.130889	0.032164
167.642736	2.130863	0.032236
168.708171	2.130851	0.032310
169.773587	2.130843	0.032382
170.839014	2.130825	0.032448
171.904412	2.130797	0.032520
172.969811	2.130788	0.032594
174.035200	2.130785	0.032660
175.100596	2.130773	0.032724
176.165973	2.130729	0.032806
177.231325	2.130715	0.032898
178.296688	2.130720	0.032984
179.362045	2.130684	0.033046
180.427372	2.130667	0.033108
181.492712	2.130657	0.033172
182.558029	2.130643	0.033250
183.623355	2.130632	0.033338
184.688661	2.130606	0.033418
185.753961	2.130584	0.033490
186.819245	2.130569	0.033550
187.884530	2.130563	0.033628
188.949808	2.130536	0.033708
190.015066	2.130512	0.033776
191.080320	2.130508	0.033848
192.145574	2.130486	0.033924
193.210806	2.130475	0.033996
194.276049	2.130456	0.034082
195.341262	2.130436	0.034168
196.406485	2.130431	0.034222
197.471693	2.130426	0.034298
198.536911	2.130426	0.034394
199.602119	2.130415	0.034458
200.667326	2.130388	0.034528
201.732507	2.130358	0.034598
202.797684	2.130335	0.034648
203.862842	2.130318	0.034736
204.928002	2.130306	0.034844
205.993148	2.130303	0.034936
207.058305	2.130303	0.035002
208.123451	2.130278	0.035062
209.188583	2.130228	0.035150
210.253679	2.130218	0.035234
211.318801	2.130230	0.035302
212.383909	2.130216	0.035374
213.449017	2.130192	0.035462
214.514101	2.130182	0.035550
215.579199	2.130177	0.035618
216.644278	2.130156	0.035680
217.709355	2.130135	0.035754
218.774413	2.130122	0.035826
219.839477	2.130102	0.035902
220.904515	2.130084	0.035994
221.969561	2.130094	0.036090
223.034609	2.130074	0.036154
224.099635	2.130034	0.036218
225.164643	2.130026	0.036314
226.229661	2.130013	0.036390
227.294656	2.129994	0.036468
228.359655	2.129983	0.036542
229.424639	2.129967	0.036622
230.489622	2.129952	0.036712
231.554591	2.129924	0.036770
232.619546	2.129923	0.036852
233.684514	2.129924	0.036948
234.749470	2.129869	0.037028
235.814383	2.129851	0.037110
236.879321	2.129864	0.037194
237.944247	2.129850	0.037274
239.009171	2.129836	0.037354
240.074083	2.129827	0.037430
241.138998	2.129821	0.037512
242.203904	2.129800	0.037588
243.268798	2.129764	0.037664
244.333668	2.129768	0.037756
245.398566	2.129766	0.037852
246.463434	2.129725	0.037936
247.528291	2.129661	0.037998
248.593095	2.129699	0.038074
249.657990	2.129758	0.038168
250.722853	2.129713	0.038242
251.787703	2.129658	0.038326
252.852511	2.129609	0.038410
253.917312	2.129663	0.038500
254.982174	2.129688	0.038596
256.047000	2.129639	0.038664
257.111813	2.129635	0.038742
258.176635	2.129617	0.038822
259.241430	2.129590	0.038900
260.306225	2.129582	0.039002
261.371012	2.129571	0.039084
262.435796	2.129558	0.039144
263.500570	2.129518	0.039240
264.565314	2.129496	0.039340
265.630066	2.129543	0.039428
266.694857	2.129530	0.039522
267.759596	2.129479	0.039604
268.824336	2.129493	0.039672
269.889089	2.129476	0.039738
270.953812	2.129442	0.039836
272.018531	2.129447	0.039934
273.083259	2.129439	0.040018
274.147970	2.129437	0.040120
275.212696	2.129417	0.040200
276.277387	2.129390	0.040270
277.342086	2.129396	0.040352
278.406783	2.129392	0.040434
279.471478	2.129378	0.040536
280.536161	2.129360	0.040626
281.600838	2.129342	0.040692
282.665503	2.129331	0.040766
283.730169	2.129322	0.040862
284.794825	2.129315	0.040962
285.859484	2.129298	0.041052
286.924123	2.129273	0.041150
287.988757	2.129263	0.041234
289.053386	2.129266	0.041316
290.118023	2.129263	0.041422
291.182649	2.129240	0.041518
292.247263	2.129223	0.041590
293.311872	2.129202	0.041676
294.376465	2.129186	0.041766
295.441058	2.129168	0.041856
296.505633	2.129143	0.041930
297.570201	2.129169	0.042006
298.634802	2.129166	0.042120
299.699367	2.129120	0.042234
300.763922	2.129121	0.042348
301.828488	2.129123	0.042420
302.893045	2.129111	0.042486
303.957599	2.129107	0.042614
305.022152	2.129081	0.042700
306.086680	2.129054	0.042772
307.151206	2.129001	0.042868
308.215681	2.129054	0.042962
309.280260	2.129110	0.043044
310.344791	2.129017	0.043122
311.409277	2.128995	0.043226
312.473786	2.129025	0.043332
313.538302	2.129010	0.043424
314.602796	2.128955	0.043504
315.667257	2.128941	0.043586
316.731737	2.128967	0.043738
317.796224	2.128916	0.043848
318.860653	2.128902	0.043898
319.925126	2.128912	0.044000
320.989565	2.128885	0.044098
322.054011	2.128892	0.044186
323.118457	2.128868	0.044278
324.182879	2.128851	0.044370
325.247308	2.128856	0.044492
326.311735	2.128794	0.044598
327.376102	2.128796	0.044668
328.440531	2.128853	0.044766
329.504955	2.128854	0.044866
330.569385	2.128834	0.044970
331.633789	2.128776	0.045066
332.698161	2.128768	0.045170
333.762557	2.128851	0.045246
334.827012	2.128834	0.045356
335.891391	2.128726	0.045482
336.955738	2.128706	0.045556
338.020097	2.128727	0.045654
339.084465	2.128723	0.045762
340.148820	2.128706	0.045856
341.213171	2.128697	0.045942
342.277517	2.128693	0.046034
343.341864	2.128682	0.046136
344.406199	2.128693	0.046226
345.470557	2.128688	0.046318
346.534887	2.128652	0.046430
347.599209	2.128642	0.046538
348.663529	2.128651	0.046634
349.727860	2.128646	0.046672
350.792175	2.128651	0.046766
351.856511	2.128640	0.046926
352.920815	2.128613	0.047038
353.985124	2.128593	0.047140
355.049408	2.128575	0.047240
356.113699	2.128594	0.047346
357.178002	2.128600	0.047444
358.242299	2.128563	0.047550
359.306565	2.128551	0.047662
360.370850	2.128573	0.047764
361.435138	2.128574	0.047852
362.499424	2.128558	0.047916
363.563696	2.128527	0.048024
364.627951	2.128486	0.048146
365.692182	2.128507	0.048260
366.756458	2.128520	0.048368
367.820702	2.128523	0.048460
368.884981	2.128544	0.048574
369.949246	2.128465	0.048648
371.013446	2.128446	0.048728
372.077692	2.128513	0.048872
373.141959	2.128494	0.049002
374.206186	2.128442	0.049104
375.270401	2.128417	0.049210
376.334603	2.128432	0.049310
377.398833	2.128444	0.049394
378.463047	2.128416	0.049526
379.527249	2.128400	0.049646
380.591447	2.128421	0.049726
381.655670	2.128408	0.049832
382.719855	2.128344	0.049934
383.784014	2.128418	0.050016
384.848273	2.128487	0.050122
385.912501	2.128339	0.050258
386.976612	2.128310	0.050392
388.040811	2.128379	0.050494
389.104991	2.128350	0.050582
390.169161	2.128352	0.050682
391.233343	2.128301	0.050822
392.297462	2.128312	0.050940
393.361655	2.128363	0.051002
394.425825	2.128313	0.051114
395.489968	2.128291	0.051240
396.554116	2.128304	0.051344
397.618272	2.128275	0.051436
398.682391	2.128236	0.051538
399.746508	2.128370	0.051660
400.810761	2.128304	0.051810
401.874812	2.128059	0.051928
402.938820	2.128155	0.052024
404.002967	2.128266	0.052130
405.067086	2.128237	0.052224
406.131204	2.128239	0.052324
407.195325	2.128199	0.052438
408.259403	2.128183	0.052570
409.323508	2.128169	0.052688
410.387572	2.128256	0.052812
411.451764	2.128324	0.052892
412.515896	2.128072	0.052968
413.579836	2.127974	0.053112
414.643870	2.128109	0.053248
415.707945	2.128137	0.053362
416.772007	2.128129	0.053474
417.836074	2.128124	0.053564
418.900131	2.128107	0.053658
419.964181	2.128093	0.053806
421.028224	2.128094	0.053964
422.092275	2.128106	0.054074
423.156330	2.128094	0.054144
424.220369	2.128065	0.054246
425.284395	2.128071	0.054406
426.348440	2.128055	0.054540
427.412450	2.128033	0.054636
428.476473	2.128040	0.054738
429.540490	2.128006	0.054852
430.604479	2.127975	0.054974
431.668465	2.128032	0.055130
432.732511	2.128038	0.055386
433.796503	2.128010	0.055474
434.860521	2.127989	0.055454
435.924492	2.127960	0.055580
436.988481	2.127987	0.055706
438.052479	2.127989	0.055822
439.116470	2.127961	0.055932
440.180440	2.127971	0.056060
441.244441	2.127980	0.056194
442.308420	2.127968	0.056312
443.372409	2.127930	0.056450
444.436350	2.127881	0.056576
445.500290	2.127926	0.056680
446.564276	2.127958	0.056800
447.628248	2.127900	0.056932
448.692176	2.127903	0.057068
449.756151	2.127854	0.057158
450.820030	2.127829	0.057244
451.883980	2.127915	0.057424
452.947945	2.127888	0.057566
454.011868	2.127866	0.057684
455.075811	2.127863	0.057814
456.139731	2.127839	0.057914
457.203650	2.127872	0.058040
458.267603	2.127871	0.058190
459.331521	2.127795	0.058286
460.395398	2.127771	0.058388
461.459292	2.127830	0.058544
462.523228	2.127828	0.058672
463.587120	2.127926	0.058800
464.651154	2.127885	0.058940
465.715005	2.127714	0.059098
466.778868	2.127813	0.059196
467.842818	2.127691	0.059284
468.906559	2.127556	0.059470
469.970374	2.127787	0.059600
471.034346	2.127857	0.059692
472.098231	2.127806	0.059826
473.162152	2.127759	0.059952
474.225990	2.127692	0.060052
475.289844	2.127727	0.060188
476.353717	2.127665	0.060338
477.417509	2.127611	0.060486
478.481328	2.127696	0.060656
479.545205	2.127753	0.060786
480.609081	2.127734	0.060898
481.672939	2.127721	0.061010
482.736802	2.127709	0.061116
483.800648	2.127659	0.061232
484.864461	2.127647	0.061402
485.928295	2.127663	0.061558
486.992124	2.127688	0.061664
488.055983	2.127683	0.061770
489.119807	2.127645	0.061906
490.183628	2.127649	0.062060
491.247456	2.127664	0.062184
492.311292	2.127623	0.062332
493.375079	2.127629	0.062466
494.438921	2.127674	0.062566
495.502753	2.127607	0.062698
496.566528	2.127582	0.062868
497.630335	2.127616	0.063018
498.694144	2.127591	0.063156
499.757926	2.127583	0.063288
500.821727	2.127597	0.063422
501.885523	2.127570	0.063594
502.949297	2.127556	0.063726
504.013079	2.127574	0.063842
505.076871	2.127556	0.063958
506.140635	2.127546	0.064090
507.204417	2.127535	0.064246
508.268170	2.127541	0.064384
509.331958	2.127572	0.064524
510.395742	2.127515	0.064676
511.459473	2.127481	0.064846
512.523223	2.127525	0.064990
513.586998	2.127387	0.065104
514.650610	2.127415	0.065268
515.714413	2.127690	0.065406
516.778300	2.127628	0.065524
517.842041	2.127492	0.065678
518.905792	2.127486	0.065812
519.969527	2.127456	0.065930
521.033248	2.127498	0.066060
522.097025	2.127480	0.066222
523.160728	2.127525	0.066376
524.224550	2.127533	0.066500
525.288261	2.127360	0.066646
526.351910	2.127378	0.066848
527.415639	2.127463	0.067014
528.479373	2.127434	0.067130
529.543073	2.127415	0.067262
530.606788	2.127420	0.067400
531.670493	2.127427	0.067554
532.734215	2.127440	0.067698
533.797933	2.127425	0.067846
534.861640	2.127418	0.068004
535.925351	2.127458	0.068034
536.989098	2.127394	0.068172
538.052745	2.127323	0.068434
539.116421	2.127344	0.068582
540.180089	2.127255	0.068722
541.243676	2.127249	0.068868
542.307338	2.127415	0.069040
543.371091	2.127448	0.069218
544.434786	2.127410	0.069352
545.498501	2.127345	0.069482
546.562131	2.127344	0.069642
547.625845	2.127351	0.069822
548.689482	2.127313	0.069952
549.753158	2.127316	0.070092
550.816798	2.127267	0.070268
551.880425	2.127262	0.070406
552.944060	2.127351	0.070536
554.007776	2.127366	0.070664
555.071426	2.127300	0.070844
556.135076	2.127294	0.071032
557.198720	2.127299	0.071188
558.262375	2.127276	0.071334
559.325996	2.127234	0.071492
560.389609	2.127228	0.071662
561.453224	2.127270	0.071832
562.516879	2.127290	0.071946
563.580514	2.127246	0.072068
564.644125	2.127068	0.072274
565.707582	2.127203	0.072416
566.771328	2.127308	0.072572
567.834890	2.127125	0.072808
568.898453	2.127335	0.072970
569.962225	2.127344	0.073086
571.025797	2.127157	0.073246
572.089382	2.127186	0.073404
573.152983	2.127111	0.073578
574.216493	2.127127	0.073706
575.280110	2.127230	0.073872
576.343723	2.127258	0.074082
577.407368	2.127215	0.074228
578.470938	2.127178	0.074364
579.534546	2.127178	0.074540
580.598116	2.127164	0.074728
581.661710	2.127157	0.074896
582.725273	2.127143	0.075066
583.788853	2.127148	0.075222
584.852421	2.127148	0.075382
585.916001	2.127145	0.075550
586.979566	2.127142	0.075720
588.043143	2.127152	0.075902
589.106718	2.127127	0.076068
590.170270	2.127092	0.076232
591.233810	2.127284	0.076396
592.297554	2.127281	0.076892
593.361091	2.126945	0.077070
594.424499	2.126951	0.076914
595.488042	2.127103	0.077088
596.551602	2.127056	0.077248
597.615098	2.127092	0.077428
598.678694	2.127114	0.077628
599.742212	2.127083	0.077828
600.805777	2.127079	0.077970
601.869291	2.127081	0.078094
602.932858	2.127039	0.078280
603.996330	2.126915	0.078420
605.059773	2.127170	0.078618
606.123500	2.127174	0.078864
607.186947	2.126879	0.078982
608.250379	2.127045	0.079114
609.313992	2.127089	0.079364
610.377468	2.127008	0.079540
611.441000	2.127036	0.079648
612.504504	2.127030	0.079844
613.568030	2.126994	0.080084
614.631498	2.126917	0.080308
615.694947	2.126977	0.080490
616.758475	2.127076	0.080610
617.822023	2.126991	0.080762
618.885466	2.126927	0.080956
619.948950	2.127003	0.081156
621.012469	2.126975	0.081354
622.075925	2.126850	0.081546
623.139319	2.126957	0.081730
624.202882	2.127099	0.081876
625.266418	2.126854	0.082072
626.329736	2.126837	0.082296
627.393255	2.127120	0.082506
628.456856	2.126957	0.082680
629.520212	2.126783	0.082840
630.583639	2.127004	0.083002
631.647216	2.127002	0.083160
632.710641	2.126908	0.083358
633.774124	2.126905	0.083636
634.837546	2.126830	0.083860
635.900954	2.126842	0.084004
636.964388	2.126830	0.084160
638.027784	2.126840	0.084352
639.091228	2.126929	0.084576
640.154713	2.126836	0.084774
641.218064	2.126821	0.084976
642.281534	2.126947	0.085144
643.345011	2.126834	0.085298
644.408368	2.126790	0.085516
645.471801	2.126821	0.085714
646.535189	2.126850	0.085902
647.598651	2.126884	0.086110
648.662073	2.126830	0.086342
649.725481	2.126770	0.086506
650.788843	2.126797	0.086662
651.852278	2.126812	0.086908
652.915655	2.126819	0.087126
653.979097	2.126824	0.087350
655.042479	2.126738	0.087546
656.105835	2.126773	0.087746
657.169252	2.126800	0.087928
658.232635	2.126763	0.088098
659.296015	2.126711	0.088282
660.359346	2.126736	0.088596
661.422751	2.126890	0.088834
662.486236	2.126841	0.088980
663.549592	2.126802	0.089192
664.613038	2.126742	0.089428
665.676334	2.126747	0.089620
666.739785	2.126803	0.089774
667.803137	2.126741	0.089982
668.866526	2.126803	0.090156
669.929940	2.126808	0.090348
670.993334	2.126762	0.090564
672.056702	2.126795	0.090832
673.120129	2.126741	0.091042
674.183443	2.126543	0.091214
675.246672	2.126727	0.091444
676.310170	2.126859	0.091668
677.373531	2.126715	0.091914
678.436885	2.126670	0.092114
679.500201	2.126635	0.092294
680.563520	2.126741	0.092492
681.626942	2.126754	0.092688
682.690274	2.126632	0.092924
683.753574	2.126641	0.093168
684.816915	2.126710	0.093390
685.880284	2.126679	0.093584
686.943594	2.126645	0.093800
688.006929	2.126646	0.094038
689.070240	2.126660	0.094252
690.133589	2.126740	0.094458
691.196980	2.126705	0.094684
692.260294	2.126475	0.094928
693.323455	2.126413	0.095114
694.386707	2.126444	0.095414
695.449899	2.126652	0.095634
696.513359	2.126939	0.095918
697.576838	2.126885	0.096228
698.640244	2.126667	0.096304
699.703505	2.126544	0.096494
700.766788	2.126536	0.096752
701.830041	2.126581	0.096974
702.893369	2.126639	0.097170
703.956680	2.126634	0.097368
705.020003	2.126618	0.097626
706.083298	2.126510	0.097904
707.146513	2.126486	0.098122
708.209784	2.126618	0.098324
709.273131	2.126605	0.098538
710.336389	2.126602	0.098814
711.399733	2.126576	0.099066
712.462965	2.126493	0.099274
713.526226	2.126495	0.099520
714.589460	2.126522	0.099752
715.652748	2.126583	0.099960
716.716043	2.126538	0.100178
717.779286	2.126503	0.100360
718.842546	2.126540	0.100664
719.905826	2.126468	0.100956
720.969014	2.126518	0.101152
722.032344	2.126580	0.101360
723.095594	2.126531	0.101620
724.158875	2.126488	0.101874
725.222082	2.126451	0.102096
726.285326	2.126474	0.102408
727.348556	2.126450	0.102640
728.411776	2.126442	0.102816
729.474998	2.126683	0.103028
730.538459	2.126555	0.103262
731.601553	2.126269	0.103586
732.664728	2.126418	0.103856
733.727971	2.126351	0.104042
734.791079	2.126349	0.104366
